Waktu (HH:MM:SS.ms),Nilai ADC
09:59:34.062,1152
09:59:34.062,1078
09:59:34.062,1068
09:59:34.062,1131
09:59:34.063,1168
09:59:34.063,1071
09:59:34.063,1072
09:59:34.063,1049
09:59:34.065,1006
09:59:34.065,1038
09:59:34.065,1071
09:59:34.065,1061
09:59:34.067,1103
09:59:34.067,1121
09:59:34.067,1151
09:59:34.068,1133
09:59:34.068,1071
09:59:34.069,1072
09:59:34.070,1097
09:59:34.134,1117
09:59:34.235,1084
09:59:34.333,990
09:59:34.432,934
09:59:34.532,974
09:59:34.636,957
09:59:34.734,1023
09:59:34.836,1013
09:59:34.934,989
09:59:35.032,1001
09:59:35.134,942
09:59:35.233,892
09:59:35.333,902
09:59:35.432,858
09:59:35.534,884
09:59:35.633,975
09:59:35.735,1091
09:59:35.832,946
09:59:35.934,906
09:59:36.033,954
09:59:36.127,1019
09:59:36.236,987
09:59:36.334,1023
09:59:36.434,939
09:59:36.534,948
09:59:36.632,963
09:59:36.735,1063
09:59:36.834,1175
09:59:36.934,961
09:59:37.036,871
09:59:37.136,836
09:59:37.231,839
09:59:37.332,879
09:59:37.434,1006
09:59:37.534,1014
09:59:37.634,996
09:59:37.734,833
09:59:37.834,804
09:59:37.938,748
09:59:38.037,861
09:59:38.133,1023
09:59:38.236,991
09:59:38.334,945
09:59:38.437,1105
09:59:38.534,977
09:59:38.634,733
09:59:38.735,752
09:59:38.833,729
09:59:38.935,677
09:59:39.034,763
09:59:39.135,624
09:59:39.234,691
09:59:39.331,665
09:59:39.432,688
09:59:39.535,654
09:59:39.634,761
09:59:39.734,862
09:59:39.838,1042
09:59:39.932,1056
09:59:40.038,799
09:59:40.134,719
09:59:40.236,755
09:59:40.334,848
09:59:40.434,805
09:59:40.535,678
09:59:40.634,653
09:59:40.737,627
09:59:40.837,799
09:59:40.931,954
09:59:41.034,799
09:59:41.133,722
09:59:41.237,794
09:59:41.334,781
09:59:41.438,789
09:59:41.531,730
09:59:41.634,784
09:59:41.734,832
09:59:41.836,770
09:59:41.934,715
09:59:42.032,707
09:59:42.135,702
09:59:42.238,680
09:59:42.335,715
09:59:42.432,695
09:59:42.534,722
09:59:42.629,675
09:59:42.727,699
09:59:42.836,699
09:59:42.933,723
09:59:43.034,697
09:59:43.138,687
09:59:43.232,689
09:59:43.336,677
09:59:43.434,687
09:59:43.527,670
09:59:43.632,705
09:59:43.732,720
09:59:43.836,725
09:59:43.938,672
09:59:44.032,679
09:59:44.134,658
09:59:44.234,673
09:59:44.334,639
09:59:44.436,681
09:59:44.534,650
09:59:44.635,640
09:59:44.734,637
09:59:44.832,660
09:59:44.939,651
09:59:45.032,706
09:59:45.134,703
09:59:45.234,719
09:59:45.334,765
09:59:45.434,658
09:59:45.539,721
09:59:45.639,665
09:59:45.730,694
09:59:45.833,695
09:59:45.933,711
09:59:46.035,674
09:59:46.135,706
09:59:46.238,710
09:59:46.336,727
09:59:46.438,739
09:59:46.533,735
09:59:46.635,677
09:59:46.734,674
09:59:46.832,723
09:59:46.934,750
09:59:47.034,911
09:59:47.136,855
09:59:47.233,769
09:59:47.334,727
09:59:47.438,753
09:59:47.535,877
09:59:47.634,763
09:59:47.734,735
09:59:47.832,746
09:59:47.935,731
09:59:48.035,819
09:59:48.134,800
09:59:48.236,751
09:59:48.335,784
09:59:48.436,761
09:59:48.538,774
09:59:48.638,752
09:59:48.738,758
09:59:48.830,745
09:59:48.934,784
09:59:49.031,755
09:59:49.134,748
09:59:49.234,731
09:59:49.334,763
09:59:49.438,741
09:59:49.539,841
09:59:49.633,733
09:59:49.736,752
09:59:49.831,848
09:59:49.936,779
09:59:50.033,791
09:59:50.129,770
09:59:50.232,767
09:59:50.341,749
09:59:50.433,752
09:59:50.536,798
09:59:50.636,887
09:59:50.734,750
09:59:50.832,702
09:59:50.934,736
09:59:51.032,762
09:59:51.139,773
09:59:51.233,814
09:59:51.330,729
09:59:51.434,737
09:59:51.533,720
09:59:51.640,749
09:59:51.737,830
09:59:51.833,976
09:59:51.938,885
09:59:52.035,993
09:59:52.135,854
09:59:52.236,706
09:59:52.334,720
09:59:52.436,794
09:59:52.534,869
09:59:52.636,933
09:59:52.732,894
09:59:52.833,755
09:59:52.937,685
09:59:53.033,627
09:59:53.137,678
09:59:53.232,688
09:59:53.338,667
09:59:53.444,734
09:59:53.534,715
09:59:53.636,689
09:59:53.734,691
09:59:53.832,816
09:59:53.935,767
09:59:54.031,831
09:59:54.144,792
09:59:54.232,907
09:59:54.337,802
09:59:54.434,752
09:59:54.536,723
09:59:54.633,753
09:59:54.736,835
09:59:54.834,816
09:59:54.933,734
09:59:55.033,766
09:59:55.139,831
09:59:55.236,802
09:59:55.335,819
09:59:55.434,962
09:59:55.537,956
09:59:55.637,818
09:59:55.739,759
09:59:55.832,799
09:59:55.937,774
09:59:56.034,784
09:59:56.137,715
09:59:56.232,688
09:59:56.334,713
09:59:56.434,737
09:59:56.538,753
09:59:56.630,751
09:59:56.736,912
09:59:56.834,1015
09:59:56.942,1059
09:59:57.034,1233
09:59:57.134,1072
09:59:57.240,1360
09:59:57.340,1463
09:59:57.437,1573
09:59:57.538,1749
09:59:57.634,1611
09:59:57.734,1535
09:59:57.835,1735
09:59:57.938,1465
09:59:58.032,1328
09:59:58.137,1283
09:59:58.234,1344
09:59:58.334,1262
09:59:58.437,1138
09:59:58.535,1012
09:59:58.639,947
09:59:58.734,837
09:59:58.834,767
09:59:58.935,764
09:59:59.034,741
09:59:59.136,692
09:59:59.232,711
09:59:59.336,690
09:59:59.437,722
09:59:59.534,734
09:59:59.639,746
09:59:59.735,762
09:59:59.829,699
09:59:59.934,725
10:00:00.033,769
10:00:00.134,740
10:00:00.235,753
10:00:00.339,852
10:00:00.439,912
10:00:00.532,926
10:00:00.635,933
10:00:00.734,832
10:00:00.834,869
10:00:00.934,914
10:00:01.034,957
10:00:01.134,913
10:00:01.237,856
10:00:01.336,753
10:00:01.435,848
10:00:01.533,791
10:00:01.637,918
10:00:01.733,835
10:00:01.839,770
10:00:01.934,764
10:00:02.035,830
10:00:02.134,834
10:00:02.237,833
10:00:02.334,800
10:00:02.435,797
10:00:02.534,867
10:00:02.637,695
10:00:02.734,913
10:00:02.837,802
10:00:02.932,959
10:00:03.033,871
10:00:03.131,834
10:00:03.237,786
10:00:03.341,753
10:00:03.437,879
10:00:03.534,752
10:00:03.634,811
10:00:03.737,774
10:00:03.834,757
10:00:03.931,737
10:00:04.043,770
10:00:04.134,763
10:00:04.237,723
10:00:04.337,788
10:00:04.436,819
10:00:04.537,915
10:00:04.637,811
10:00:04.734,879
10:00:04.839,816
10:00:04.934,838
10:00:05.029,736
10:00:05.128,723
10:00:05.237,754
10:00:05.337,713
10:00:05.436,786
10:00:05.532,718
10:00:05.639,723
10:00:05.736,733
10:00:05.837,640
10:00:05.933,750
10:00:06.034,762
10:00:06.137,715
10:00:06.233,688
10:00:06.334,817
10:00:06.436,816
10:00:06.531,749
10:00:06.637,880
10:00:06.737,779
10:00:06.833,702
10:00:06.936,730
10:00:07.034,736
10:00:07.135,785
10:00:07.237,816
10:00:07.334,743
10:00:07.434,729
10:00:07.532,741
10:00:07.634,720
10:00:07.728,725
10:00:07.834,688
10:00:07.934,679
10:00:08.037,720
10:00:08.134,705
10:00:08.234,734
10:00:08.337,747
10:00:08.434,752
10:00:08.537,741
10:00:08.634,667
10:00:08.734,670
10:00:08.834,752
10:00:08.939,736
10:00:09.034,704
10:00:09.137,686
10:00:09.234,743
10:00:09.334,670
10:00:09.434,679
10:00:09.537,708
10:00:09.637,704
10:00:09.730,705
10:00:09.839,726
10:00:09.934,717
10:00:10.037,751
10:00:10.136,731
10:00:10.237,708
10:00:10.336,734
10:00:10.438,738
10:00:10.536,686
10:00:10.635,661
10:00:10.739,822
10:00:10.839,779
10:00:10.937,695
10:00:11.037,679
10:00:11.137,667
10:00:11.238,691
10:00:11.337,642
10:00:11.437,719
10:00:11.537,671
10:00:11.638,694
10:00:11.736,661
10:00:11.838,667
10:00:11.938,749
10:00:12.035,664
10:00:12.137,694
10:00:12.235,702
10:00:12.330,837
10:00:12.436,593
10:00:12.539,706
10:00:12.639,729
10:00:12.742,783
10:00:12.839,698
10:00:12.937,473
10:00:13.034,641
10:00:13.133,681
10:00:13.234,779
10:00:13.331,841
10:00:13.434,832
10:00:13.534,771
10:00:13.637,753
10:00:13.734,718
10:00:13.837,638
10:00:13.934,557
10:00:14.037,497
10:00:14.134,474
10:00:14.235,407
10:00:14.331,331
10:00:14.437,383
10:00:14.533,350
10:00:14.635,347
10:00:14.737,333
10:00:14.837,297
10:00:14.933,245
10:00:15.033,295
10:00:15.132,296
10:00:15.232,337
10:00:15.331,343
10:00:15.434,293
10:00:15.534,282
10:00:15.634,320
10:00:15.737,315
10:00:15.836,345
10:00:15.930,359
10:00:16.036,443
10:00:16.136,470
10:00:16.232,388
10:00:16.337,368
10:00:16.436,303
10:00:16.534,272
10:00:16.632,345
10:00:16.734,538
10:00:16.837,947
10:00:16.938,721
10:00:17.036,755
10:00:17.138,1117
10:00:17.235,1419
10:00:17.338,1900
10:00:17.438,2512
10:00:17.538,2495
10:00:17.632,2329
10:00:17.738,2196
10:00:17.837,1683
10:00:17.931,1132
10:00:18.036,657
10:00:18.139,412
10:00:18.231,358
10:00:18.337,290
10:00:18.432,347
10:00:18.537,475
10:00:18.628,637
10:00:18.733,651
10:00:18.840,814
10:00:18.939,720
10:00:19.037,528
10:00:19.132,397
10:00:19.234,442
10:00:19.335,480
10:00:19.434,550
10:00:19.534,560
10:00:19.636,624
10:00:19.737,655
10:00:19.837,631
10:00:19.930,461
10:00:20.034,349
10:00:20.137,284
10:00:20.235,333
10:00:20.333,290
10:00:20.435,326
10:00:20.536,310
10:00:20.639,310
10:00:20.733,314
10:00:20.829,331
10:00:20.933,301
10:00:21.038,320
10:00:21.137,298
10:00:21.234,315
10:00:21.333,333
10:00:21.434,304
10:00:21.535,406
10:00:21.637,353
10:00:21.737,309
10:00:21.837,320
10:00:21.934,348
10:00:22.037,389
10:00:22.133,335
10:00:22.234,308
10:00:22.333,352
10:00:22.435,347
10:00:22.537,317
10:00:22.637,308
10:00:22.731,288
10:00:22.832,356
10:00:22.939,316
10:00:23.042,345
10:00:23.132,324
10:00:23.237,381
10:00:23.332,315
10:00:23.434,335
10:00:23.534,303
10:00:23.633,338
10:00:23.735,340
10:00:23.842,309
10:00:23.932,313
10:00:24.038,336
10:00:24.134,370
10:00:24.235,372
10:00:24.339,447
10:00:24.437,549
10:00:24.534,611
10:00:24.630,522
10:00:24.734,619
10:00:24.834,640
10:00:24.937,694
10:00:25.034,806
10:00:25.134,738
10:00:25.238,665
10:00:25.343,645
10:00:25.431,621
10:00:25.534,650
10:00:25.637,570
10:00:25.732,544
10:00:25.834,486
10:00:25.933,473
10:00:26.039,496
10:00:26.136,511
10:00:26.234,465
10:00:26.333,430
10:00:26.437,400
10:00:26.534,351
10:00:26.638,355
10:00:26.735,393
10:00:26.839,412
10:00:26.929,459
10:00:27.039,562
10:00:27.137,503
10:00:27.234,443
10:00:27.336,386
10:00:27.435,393
10:00:27.534,384
10:00:27.640,379
10:00:27.733,434
10:00:27.829,688
10:00:27.936,707
10:00:28.033,653
10:00:28.137,719
10:00:28.234,576
10:00:28.337,511
10:00:28.435,499
10:00:28.540,578
10:00:28.634,789
10:00:28.737,469
10:00:28.834,539
10:00:28.934,489
10:00:29.035,600
10:00:29.134,444
10:00:29.239,430
10:00:29.332,403
10:00:29.431,420
10:00:29.534,338
10:00:29.637,330
10:00:29.733,442
10:00:29.832,418
10:00:29.939,400
10:00:30.032,378
10:00:30.137,453
10:00:30.237,453
10:00:30.338,416
10:00:30.437,358
10:00:30.540,321
10:00:30.638,377
10:00:30.734,415
10:00:30.834,479
10:00:30.933,615
10:00:31.038,461
10:00:31.138,400
10:00:31.234,705
10:00:31.334,848
10:00:31.432,699
10:00:31.535,659
10:00:31.634,570
10:00:31.734,612
10:00:31.835,503
10:00:31.937,421
10:00:32.035,384
10:00:32.137,324
10:00:32.234,352
10:00:32.334,334
10:00:32.435,325
10:00:32.538,351
10:00:32.638,345
10:00:32.734,397
10:00:32.838,375
10:00:32.935,448
10:00:33.040,566
10:00:33.130,594
10:00:33.236,613
10:00:33.334,595
10:00:33.435,510
10:00:33.534,496
10:00:33.637,489
10:00:33.740,464
10:00:33.838,559
10:00:33.932,624
10:00:34.034,545
10:00:34.135,575
10:00:34.237,535
10:00:34.331,555
10:00:34.440,491
10:00:34.535,496
10:00:34.632,505
10:00:34.733,490
10:00:34.837,579
10:00:34.932,487
10:00:35.033,556
10:00:35.133,503
10:00:35.240,583
10:00:35.335,570
10:00:35.434,618
10:00:35.538,571
10:00:35.634,617
10:00:35.737,546
10:00:35.837,543
10:00:35.943,567
10:00:36.037,784
10:00:36.138,923
10:00:36.234,747
10:00:36.338,706
10:00:36.436,656
10:00:36.534,604
10:00:36.634,588
10:00:36.734,547
10:00:36.834,545
10:00:36.938,582
10:00:37.038,727
10:00:37.134,726
10:00:37.233,529
10:00:37.342,417
10:00:37.438,381
10:00:37.534,366
10:00:37.631,399
10:00:37.737,437
10:00:37.834,508
10:00:37.933,511
10:00:38.040,565
10:00:38.145,584
10:00:38.231,586
10:00:38.334,826
10:00:38.434,955
