Waktu (HH:MM:SS.ms),Nilai ADC
09:44:49.310,1331
09:44:49.310,1205
09:44:49.310,1178
09:44:49.310,1244
09:44:49.310,1297
09:44:49.313,1128
09:44:49.313,1150
09:44:49.313,1196
09:44:49.313,1198
09:44:49.313,1152
09:44:49.313,1152
09:44:49.313,1229
09:44:49.313,1291
09:44:49.316,1282
09:44:49.316,1261
09:44:49.317,1347
09:44:49.317,1309
09:44:49.317,1511
09:44:49.317,1666
09:44:49.387,2032
09:44:49.490,2257
09:44:49.591,2420
09:44:49.688,2437
09:44:49.789,2435
09:44:49.888,2182
09:44:49.986,2318
09:44:50.087,2367
09:44:50.189,2176
09:44:50.292,2123
09:44:50.389,1891
09:44:50.491,1821
09:44:50.588,1661
09:44:50.687,1280
09:44:50.788,1207
09:44:50.887,1344
09:44:50.989,1533
09:44:51.083,1514
09:44:51.195,1601
09:44:51.290,1462
09:44:51.383,1424
09:44:51.490,1449
09:44:51.587,1281
09:44:51.686,1296
09:44:51.791,1126
09:44:51.890,1186
09:44:51.993,1173
09:44:52.089,1023
09:44:52.186,1078
09:44:52.290,1129
09:44:52.386,1066
09:44:52.492,1072
09:44:52.584,1034
09:44:52.690,1070
09:44:52.789,1068
09:44:52.882,1055
09:44:52.990,1095
09:44:53.092,1038
09:44:53.188,1085
09:44:53.282,1093
09:44:53.386,1073
09:44:53.488,1079
09:44:53.588,1057
09:44:53.685,1061
09:44:53.787,1105
09:44:53.889,1110
09:44:53.984,1107
09:44:54.082,1156
09:44:54.185,1095
09:44:54.288,1083
09:44:54.390,1136
09:44:54.483,1086
09:44:54.589,1149
09:44:54.689,1111
09:44:54.784,1075
09:44:54.889,1120
09:44:54.990,1085
09:44:55.086,1067
09:44:55.189,1062
09:44:55.289,1038
09:44:55.389,1057
09:44:55.486,1038
09:44:55.588,1023
09:44:55.688,1040
09:44:55.792,1086
09:44:55.890,1104
09:44:55.989,1087
09:44:56.088,1073
09:44:56.182,1124
09:44:56.283,1061
09:44:56.386,1099
09:44:56.484,1088
09:44:56.590,1059
09:44:56.681,1019
09:44:56.787,1073
09:44:56.890,1104
09:44:56.990,1088
09:44:57.090,1108
09:44:57.185,1129
09:44:57.287,1121
09:44:57.387,1161
09:44:57.488,1161
09:44:57.583,1168
09:44:57.685,1190
09:44:57.785,1201
09:44:57.880,1205
09:44:57.988,1243
09:44:58.088,1189
09:44:58.190,1202
09:44:58.289,1200
09:44:58.389,1195
09:44:58.490,1162
09:44:58.589,1208
09:44:58.690,1148
09:44:58.786,1135
09:44:58.890,1104
09:44:58.984,1196
09:44:59.090,1200
09:44:59.183,1212
09:44:59.287,1199
09:44:59.390,1259
09:44:59.486,1201
09:44:59.587,1298
09:44:59.685,1210
09:44:59.787,1247
09:44:59.889,1197
09:44:59.982,1210
09:45:00.088,1159
09:45:00.186,1242
09:45:00.290,1264
09:45:00.388,1246
09:45:00.489,1169
09:45:00.589,1223
09:45:00.688,1114
09:45:00.785,1123
09:45:00.897,1126
09:45:00.989,1152
09:45:01.082,1124
09:45:01.189,1102
09:45:01.290,1115
09:45:01.389,1059
09:45:01.489,1129
09:45:01.585,1123
09:45:01.688,1120
09:45:01.781,1091
09:45:01.891,1117
09:45:01.985,1153
09:45:02.089,1120
09:45:02.188,1148
09:45:02.289,1126
09:45:02.382,1116
09:45:02.482,1110
09:45:02.590,1104
09:45:02.691,1136
09:45:02.791,1110
09:45:02.890,1104
09:45:02.989,1104
09:45:03.090,1125
09:45:03.188,1088
09:45:03.290,1126
09:45:03.389,1118
09:45:03.491,1138
09:45:03.585,1145
09:45:03.690,1167
09:45:03.785,1093
09:45:03.886,1067
09:45:03.991,1098
09:45:04.092,1103
09:45:04.189,1088
09:45:04.288,1159
09:45:04.390,1190
09:45:04.490,1171
09:45:04.583,1102
09:45:04.692,1156
09:45:04.785,1213
09:45:04.888,1185
09:45:04.988,1162
09:45:05.090,1194
09:45:05.188,1216
09:45:05.290,1185
09:45:05.392,1213
09:45:05.490,1226
09:45:05.591,1178
09:45:05.694,1193
09:45:05.783,1239
09:45:05.890,1152
09:45:05.990,1153
09:45:06.082,1151
09:45:06.187,1159
09:45:06.292,1181
09:45:06.391,1183
09:45:06.483,1152
09:45:06.586,1163
09:45:06.690,1185
09:45:06.783,1145
09:45:06.889,1158
09:45:06.984,1162
09:45:07.087,1156
09:45:07.192,1171
09:45:07.290,1161
09:45:07.382,1105
09:45:07.487,1167
09:45:07.591,1133
09:45:07.683,1155
09:45:07.789,1167
09:45:07.890,1216
09:45:07.984,1101
09:45:08.083,1141
09:45:08.191,1125
09:45:08.294,1239
09:45:08.390,1138
09:45:08.492,1168
09:45:08.590,1168
09:45:08.687,1163
09:45:08.784,1211
09:45:08.889,1199
09:45:08.989,1168
09:45:09.085,1171
09:45:09.194,1185
09:45:09.290,1154
09:45:09.383,1127
09:45:09.487,1163
09:45:09.584,1147
09:45:09.686,1168
09:45:09.790,1177
09:45:09.883,1186
09:45:09.992,1163
09:45:10.084,1145
09:45:10.187,1200
09:45:10.291,1235
09:45:10.390,1149
09:45:10.490,1175
09:45:10.591,1200
09:45:10.692,1255
09:45:10.792,1310
09:45:10.889,1317
09:45:10.990,1317
09:45:11.091,1559
09:45:11.191,1603
09:45:11.287,1492
09:45:11.390,1293
09:45:11.490,1305
09:45:11.593,1582
09:45:11.694,1424
09:45:11.790,1242
09:45:11.890,1296
09:45:11.990,1342
09:45:12.084,1207
09:45:12.190,1233
09:45:12.290,1202
09:45:12.384,1270
09:45:12.495,1267
09:45:12.583,1348
09:45:12.685,1302
09:45:12.784,1302
09:45:12.883,1323
09:45:12.996,1253
09:45:13.083,1372
09:45:13.190,1254
09:45:13.290,1087
09:45:13.390,1073
09:45:13.483,1139
09:45:13.590,1054
09:45:13.692,1066
09:45:13.792,1043
09:45:13.890,1093
09:45:13.990,1084
09:45:14.089,1075
09:45:14.185,1101
09:45:14.282,1104
09:45:14.386,1104
09:45:14.491,1228
09:45:14.589,1227
09:45:14.683,1191
09:45:14.790,1242
09:45:14.890,1199
09:45:14.990,1134
09:45:15.082,1052
09:45:15.190,1050
09:45:15.291,1103
09:45:15.384,1103
09:45:15.492,1102
09:45:15.590,1148
09:45:15.683,1141
09:45:15.791,1117
09:45:15.891,1081
09:45:15.987,1138
09:45:16.090,1092
09:45:16.182,1099
09:45:16.292,1055
09:45:16.390,1146
09:45:16.485,1144
09:45:16.590,1147
09:45:16.690,1310
09:45:16.790,1234
09:45:16.882,1234
09:45:16.990,1225
09:45:17.093,1168
09:45:17.190,1157
09:45:17.292,1424
09:45:17.393,1245
09:45:17.489,1121
09:45:17.585,1135
09:45:17.690,1111
09:45:17.789,1169
09:45:17.881,1179
09:45:17.989,1123
09:45:18.089,1137
09:45:18.192,1154
09:45:18.292,1143
09:45:18.383,1183
09:45:18.490,1127
09:45:18.584,1163
09:45:18.690,1124
09:45:18.790,1129
09:45:18.883,1190
09:45:18.983,1141
09:45:19.092,1153
09:45:19.189,1175
09:45:19.282,1120
09:45:19.390,1235
09:45:19.483,1296
09:45:19.590,1321
09:45:19.692,1312
09:45:19.791,1259
09:45:19.885,1173
09:45:19.990,1226
09:45:20.090,1274
09:45:20.183,1216
09:45:20.286,1179
09:45:20.381,1178
09:45:20.484,1147
09:45:20.591,1176
09:45:20.689,1136
09:45:20.791,1162
09:45:20.893,1136
09:45:20.994,1211
09:45:21.081,1165
09:45:21.190,1155
09:45:21.291,1163
09:45:21.384,1159
09:45:21.487,1157
09:45:21.589,1212
09:45:21.688,1214
09:45:21.792,1123
09:45:21.889,1147
09:45:21.991,1163
09:45:22.090,1173
09:45:22.187,1147
09:45:22.293,1102
09:45:22.393,1166
09:45:22.484,1157
09:45:22.590,1151
09:45:22.690,1147
09:45:22.790,1152
09:45:22.890,1137
09:45:22.990,1146
09:45:23.091,1132
09:45:23.185,1171
09:45:23.292,1136
09:45:23.391,1141
09:45:23.486,1123
09:45:23.591,1142
09:45:23.682,1156
09:45:23.788,1186
09:45:23.891,1159
09:45:23.992,1118
09:45:24.082,1104
09:45:24.191,1182
09:45:24.285,1145
09:45:24.389,1167
09:45:24.490,1104
09:45:24.592,1138
09:45:24.686,1197
09:45:24.790,1162
09:45:24.891,1171
09:45:24.990,1261
09:45:25.085,1251
09:45:25.189,1232
09:45:25.293,1169
09:45:25.391,1216
09:45:25.490,1243
09:45:25.585,1257
09:45:25.691,1344
09:45:25.791,1406
09:45:25.893,1232
09:45:25.993,1216
09:45:26.088,1233
09:45:26.185,1227
09:45:26.290,1463
09:45:26.391,1495
09:45:26.491,1316
09:45:26.592,1339
09:45:26.681,1235
09:45:26.790,1243
09:45:26.890,1237
09:45:26.986,1245
09:45:27.090,1403
09:45:27.192,1472
09:45:27.288,1506
09:45:27.391,1526
09:45:27.493,1607
09:45:27.584,1495
09:45:27.690,1422
09:45:27.784,1310
09:45:27.882,1218
09:45:27.990,1218
09:45:28.093,1283
09:45:28.187,1280
09:45:28.291,1239
09:45:28.385,1320
09:45:28.489,1520
09:45:28.582,1535
09:45:28.685,1595
09:45:28.786,1685
09:45:28.893,1834
09:45:28.985,1905
09:45:29.090,1890
09:45:29.184,1751
09:45:29.290,1699
09:45:29.391,2098
09:45:29.484,2133
09:45:29.590,2046
09:45:29.683,1815
09:45:29.791,1936
09:45:29.891,2070
09:45:29.992,2133
09:45:30.090,2623
09:45:30.191,3345
09:45:30.283,4095
09:45:30.391,3952
09:45:30.490,4095
09:45:30.593,4095
09:45:30.691,4095
09:45:30.783,4095
09:45:30.891,4095
09:45:30.984,4095
09:45:31.091,4095
09:45:31.191,4095
09:45:31.285,4095
09:45:31.388,4095
09:45:31.485,4000
09:45:31.591,2934
09:45:31.691,2352
09:45:31.791,1936
09:45:31.891,1568
09:45:31.992,1253
09:45:32.092,1136
09:45:32.191,1155
09:45:32.291,1138
09:45:32.391,1285
09:45:32.484,1448
09:45:32.591,1590
09:45:32.692,2074
09:45:32.785,2670
09:45:32.891,2883
09:45:32.991,2804
09:45:33.091,2335
09:45:33.184,2066
09:45:33.291,1680
09:45:33.392,1695
09:45:33.491,1809
09:45:33.586,1407
09:45:33.691,1915
09:45:33.781,1923
09:45:33.887,1771
09:45:33.991,1670
09:45:34.084,1665
09:45:34.191,1785
09:45:34.288,1827
09:45:34.392,1513
09:45:34.484,1525
09:45:34.591,1303
09:45:34.691,1195
09:45:34.791,1186
09:45:34.892,1185
09:45:34.986,1185
09:45:35.093,1126
09:45:35.193,1149
09:45:35.291,1146
09:45:35.390,1078
09:45:35.485,995
09:45:35.590,1006
09:45:35.685,1003
09:45:35.789,982
09:45:35.885,1040
09:45:35.991,1008
09:45:36.092,1104
09:45:36.192,1057
09:45:36.291,1054
09:45:36.391,1183
09:45:36.489,1143
09:45:36.591,1141
09:45:36.688,1130
09:45:36.791,1146
09:45:36.882,1134
09:45:36.983,1197
09:45:37.091,1186
09:45:37.191,1261
09:45:37.293,1236
09:45:37.387,1212
09:45:37.490,1157
09:45:37.591,1239
09:45:37.682,1175
09:45:37.792,1167
09:45:37.890,1042
09:45:37.990,1076
09:45:38.091,1163
09:45:38.189,1227
09:45:38.290,1287
09:45:38.390,1265
09:45:38.485,1246
09:45:38.592,1263
09:45:38.692,1196
09:45:38.791,1296
09:45:38.883,1291
09:45:38.982,1239
09:45:39.091,1335
09:45:39.192,1318
09:45:39.291,1399
09:45:39.393,1456
09:45:39.489,1414
09:45:39.591,1600
09:45:39.682,1529
09:45:39.792,1498
09:45:39.891,1484
09:45:39.993,1415
09:45:40.085,1278
09:45:40.192,1232
09:45:40.293,1173
09:45:40.391,1136
09:45:40.491,1109
09:45:40.582,1079
09:45:40.687,1113
09:45:40.785,1149
09:45:40.891,1119
09:45:40.991,1232
09:45:41.091,1311
09:45:41.189,1406
09:45:41.281,1479
09:45:41.386,1663
09:45:41.490,1897
09:45:41.585,1682
09:45:41.692,1667
09:45:41.792,1526
09:45:41.891,1520
09:45:41.991,1571
09:45:42.092,1534
09:45:42.184,1535
09:45:42.291,1379
09:45:42.392,1623
09:45:42.491,1631
09:45:42.593,1481
09:45:42.691,1475
09:45:42.791,1393
09:45:42.883,1281
09:45:42.991,1258
09:45:43.093,1154
09:45:43.188,1150
09:45:43.291,1130
09:45:43.384,1135
09:45:43.484,1168
09:45:43.591,1194
09:45:43.692,1103
09:45:43.793,1202
09:45:43.890,1183
09:45:43.990,1138
09:45:44.085,1232
09:45:44.187,1206
09:45:44.291,1474
09:45:44.393,2922
09:45:44.491,4095
09:45:44.583,4079
09:45:44.691,3007
09:45:44.791,2066
09:45:44.892,1423
09:45:44.991,1727
09:45:45.091,1445
09:45:45.192,1488
09:45:45.292,1637
09:45:45.388,1500
09:45:45.492,1363
09:45:45.590,1511
09:45:45.692,1535
09:45:45.788,1369
09:45:45.893,1445
09:45:45.990,1693
09:45:46.090,1564
09:45:46.191,1518
09:45:46.291,1535
09:45:46.391,1617
09:45:46.490,1721
09:45:46.591,1897
09:45:46.683,1910
09:45:46.791,2030
09:45:46.893,1659
09:45:46.985,1469
09:45:47.085,1485
09:45:47.184,1408
09:45:47.291,1498
09:45:47.382,1441
09:45:47.484,1396
09:45:47.591,1571
09:45:47.690,1734
09:45:47.783,1594
09:45:47.890,1579
09:45:47.991,1493
09:45:48.091,1522
09:45:48.191,1569
09:45:48.292,1585
09:45:48.391,1584
09:45:48.491,1652
09:45:48.592,1733
09:45:48.691,1599
09:45:48.784,1716
09:45:48.891,1751
09:45:48.991,1797
09:45:49.091,1827
09:45:49.191,1869
09:45:49.292,1863
09:45:49.391,1865
09:45:49.494,1863
09:45:49.584,1999
09:45:49.685,1978
09:45:49.791,2011
09:45:49.883,2176
09:45:49.991,1877
09:45:50.091,1761
09:45:50.193,1810
09:45:50.291,1981
09:45:50.385,1803
09:45:50.491,1692
09:45:50.591,1718
09:45:50.690,1599
09:45:50.784,1838
09:45:50.887,1599
09:45:50.993,1519
09:45:51.091,1451
09:45:51.193,1291
09:45:51.293,1310
09:45:51.391,1311
09:45:51.484,1341
09:45:51.591,1379
09:45:51.683,1339
09:45:51.789,1359
09:45:51.891,1354
09:45:51.993,1345
09:45:52.084,1279
09:45:52.192,1383
09:45:52.286,1465
09:45:52.392,1439
09:45:52.492,1602
09:45:52.591,1502
09:45:52.692,1431
09:45:52.792,1408
09:45:52.891,1435
09:45:52.987,1450
09:45:53.088,1535
09:45:53.188,1613
09:45:53.291,1458
09:45:53.391,1514
09:45:53.490,1478
09:45:53.592,1375
09:45:53.692,1310
09:45:53.792,1325
09:45:53.892,1360
09:45:53.992,1424
09:45:54.092,1444
09:45:54.192,1394
09:45:54.292,1345
09:45:54.391,1427
09:45:54.492,1403
09:45:54.592,1343
09:45:54.689,1337
09:45:54.792,1369
09:45:54.894,1344
09:45:54.993,1277
09:45:55.091,1312
09:45:55.192,1378
09:45:55.283,1367
09:45:55.392,1387
09:45:55.485,1359
09:45:55.591,1341
09:45:55.694,1500
09:45:55.794,1454
09:45:55.887,1425
09:45:55.983,1385
09:45:56.091,1408
09:45:56.192,1408
09:45:56.294,1404
09:45:56.395,1333
09:45:56.491,1392
09:45:56.591,1351
09:45:56.689,1363
09:45:56.783,1296
09:45:56.891,1374
09:45:56.992,1358
09:45:57.089,1365
09:45:57.185,1360
09:45:57.284,1383
09:45:57.391,1397
09:45:57.491,1442
09:45:57.585,1408
09:45:57.692,1413
09:45:57.793,1323
09:45:57.893,1328
09:45:57.991,1394
09:45:58.091,1362
09:45:58.191,1424
09:45:58.288,1360
09:45:58.391,1351
09:45:58.491,1389
09:45:58.592,1408
09:45:58.682,1405
09:45:58.784,1323
09:45:58.889,1397
09:45:58.992,1407
09:45:59.085,1356
09:45:59.191,1350
09:45:59.282,1375
09:45:59.392,1392
09:45:59.492,1421
09:45:59.594,1378
09:45:59.693,1462
09:45:59.783,1441
09:45:59.892,1514
09:45:59.984,1488
09:46:00.094,1555
09:46:00.191,1737
09:46:00.287,1679
09:46:00.392,1675
09:46:00.482,1657
09:46:00.584,1600
09:46:00.692,1573
09:46:00.791,1525
09:46:00.889,1503
09:46:00.991,1456
09:46:01.084,1488
09:46:01.186,1407
09:46:01.285,1417
09:46:01.393,1424
09:46:01.494,1514
09:46:01.590,1517
09:46:01.689,1440
09:46:01.792,1479
09:46:01.892,1347
09:46:01.992,1372
09:46:02.092,1433
09:46:02.193,1451
09:46:02.289,1392
09:46:02.392,1377
09:46:02.484,1410
09:46:02.592,1365
09:46:02.692,1403
09:46:02.788,1466
09:46:02.894,1466
09:46:02.985,1378
09:46:03.091,1375
09:46:03.188,1418
09:46:03.292,1445
09:46:03.394,1470
09:46:03.489,1488
09:46:03.593,1438
09:46:03.691,1419
09:46:03.791,1484
09:46:03.883,1498
09:46:03.992,1490
09:46:04.092,1415
09:46:04.184,1413
09:46:04.293,1482
09:46:04.388,1486
09:46:04.492,1483
09:46:04.591,1498
09:46:04.692,1565
09:46:04.789,1519
09:46:04.890,1489
09:46:04.992,1520
09:46:05.086,1493
09:46:05.192,1489
09:46:05.285,1511
09:46:05.392,1490
09:46:05.492,1449
09:46:05.591,1479
09:46:05.692,1470
09:46:05.792,1456
09:46:05.892,1398
09:46:05.994,1365
09:46:06.092,1430
09:46:06.193,1472
09:46:06.292,1535
09:46:06.383,1489
09:46:06.492,1454
09:46:06.595,1430
09:46:06.685,1535
09:46:06.793,1595
09:46:06.894,1521
09:46:06.985,1567
09:46:07.092,1600
09:46:07.184,1602
09:46:07.292,1663
09:46:07.385,1502
09:46:07.492,1415
09:46:07.594,1603
09:46:07.692,1494
09:46:07.794,1491
09:46:07.893,1409
09:46:07.985,1451
09:46:08.092,1451
09:46:08.185,1477
09:46:08.292,1476
09:46:08.391,1606
09:46:08.493,1487
09:46:08.592,1478
09:46:08.686,1467
09:46:08.782,1649
09:46:08.892,1693
09:46:08.992,1887
09:46:09.091,1711
09:46:09.192,1583
09:46:09.292,1510
09:46:09.392,1557
09:46:09.484,1648
09:46:09.592,1681
09:46:09.692,1813
09:46:09.782,2065
09:46:09.892,2064
09:46:09.992,2041
09:46:10.093,2161
09:46:10.185,1924
09:46:10.292,1996
09:46:10.392,1731
09:46:10.484,1535
09:46:10.590,1481
09:46:10.692,1422
09:46:10.792,1430
09:46:10.891,1408
09:46:10.992,1295
09:46:11.091,1354
09:46:11.192,1403
09:46:11.286,1349
09:46:11.385,1447
09:46:11.492,1398
09:46:11.592,1515
09:46:11.692,1467
09:46:11.792,1443
09:46:11.883,1392
09:46:11.992,1392
09:46:12.093,1397
09:46:12.190,1354
09:46:12.294,1390
09:46:12.392,1347
09:46:12.483,1311
09:46:12.592,1338
09:46:12.683,1362
09:46:12.792,1347
09:46:12.894,1378
09:46:12.994,1341
09:46:13.091,1423
09:46:13.186,1477
09:46:13.288,1486
09:46:13.392,1472
09:46:13.492,1371
09:46:13.592,1348
09:46:13.692,1347
09:46:13.793,1343
09:46:13.886,1367
09:46:13.985,1317
09:46:14.092,1264
09:46:14.193,1328
09:46:14.288,1303
09:46:14.391,1267
09:46:14.493,1355
09:46:14.594,1439
09:46:14.688,1339
09:46:14.787,1386
09:46:14.892,1360
09:46:14.992,1333
09:46:15.091,1237
09:46:15.192,1282
09:46:15.291,1296
09:46:15.385,1307
09:46:15.485,1305
09:46:15.591,1291
09:46:15.692,1296
09:46:15.792,1274
09:46:15.894,1306
09:46:15.992,1278
09:46:16.086,1255
09:46:16.192,1270
09:46:16.283,1249
09:46:16.390,1236
09:46:16.492,1281
09:46:16.584,1250
09:46:16.691,1289
09:46:16.789,1279
09:46:16.891,1266
09:46:16.991,1282
09:46:17.093,1316
09:46:17.191,1325
09:46:17.293,1296
09:46:17.386,1296
09:46:17.492,1302
09:46:17.591,1299
09:46:17.691,1328
09:46:17.786,1298
09:46:17.890,1347
09:46:17.984,1328
09:46:18.091,1337
09:46:18.184,1351
09:46:18.291,1296
09:46:18.392,1325
09:46:18.483,1337
09:46:18.592,1324
09:46:18.694,1335
09:46:18.785,1282
09:46:18.891,1326
09:46:18.985,1296
09:46:19.091,1331
09:46:19.192,1305
09:46:19.284,1335
09:46:19.391,1342
09:46:19.492,1374
09:46:19.591,1358
09:46:19.684,1343
09:46:19.792,1354
09:46:19.886,1391
09:46:19.990,1369
09:46:20.091,1360
09:46:20.191,1363
09:46:20.292,1450
09:46:20.386,1379
09:46:20.491,1360
09:46:20.591,1440
09:46:20.692,1373
09:46:20.792,1376
09:46:20.885,1327
09:46:20.990,1392
09:46:21.085,1392
09:46:21.192,1326
09:46:21.283,1299
09:46:21.390,1264
09:46:21.491,1377
09:46:21.591,1328
09:46:21.692,1363
09:46:21.791,1328
09:46:21.891,1326
09:46:21.991,1407
09:46:22.089,1381
09:46:22.185,1372
09:46:22.292,1358
09:46:22.384,1358
09:46:22.488,1351
09:46:22.591,1430
09:46:22.691,1443
09:46:22.789,1392
09:46:22.891,1421
09:46:22.991,1389
09:46:23.092,1404
09:46:23.192,1365
09:46:23.285,1589
09:46:23.391,1557
09:46:23.482,1422
09:46:23.591,1454
09:46:23.684,1359
09:46:23.786,1409
09:46:23.894,1415
09:46:23.988,1402
09:46:24.091,1387
09:46:24.191,1359
09:46:24.292,1342
09:46:24.392,1361
09:46:24.492,1375
09:46:24.591,1463
09:46:24.688,1415
09:46:24.787,1458
09:46:24.882,1392
09:46:24.986,1461
09:46:25.091,1456
09:46:25.193,1431
09:46:25.289,1404
09:46:25.391,1405
09:46:25.490,1425
09:46:25.591,1504
09:46:25.691,1520
09:46:25.791,1457
09:46:25.891,1404
09:46:25.992,1441
09:46:26.092,1454
09:46:26.191,1474
09:46:26.291,1488
09:46:26.391,1466
09:46:26.484,1415
09:46:26.592,1424
09:46:26.691,1419
09:46:26.793,1421
09:46:26.893,1505
09:46:26.982,1383
09:46:27.087,1365
09:46:27.191,1455
09:46:27.283,1394
09:46:27.388,1410
09:46:27.492,1419
09:46:27.589,1434
09:46:27.684,1411
09:46:27.792,1392
09:46:27.886,1390
09:46:27.991,1456
09:46:28.092,1427
09:46:28.192,1453
09:46:28.293,1349
09:46:28.385,1392
09:46:28.491,1453
09:46:28.584,1421
09:46:28.691,1403
09:46:28.792,1362
09:46:28.884,1344
09:46:28.991,1323
09:46:29.091,1314
09:46:29.184,1299
09:46:29.291,1271
09:46:29.391,1303
09:46:29.494,1350
09:46:29.596,1382
09:46:29.689,1366
