Waktu (HH:MM:SS.ms),Nilai ADC
09:55:50.623,4095
09:55:50.623,3861
09:55:50.625,3083
09:55:50.626,2471
09:55:50.626,1905
09:55:50.627,1597
09:55:50.627,1232
09:55:50.628,1099
09:55:50.628,1023
09:55:50.628,962
09:55:50.628,970
09:55:50.630,1002
09:55:50.631,1096
09:55:50.632,1008
09:55:50.632,907
09:55:50.632,816
09:55:50.633,814
09:55:50.633,759
09:55:50.634,818
09:55:50.672,821
09:55:50.772,762
09:55:50.874,816
09:55:50.973,808
09:55:51.073,811
09:55:51.166,941
09:55:51.268,1045
09:55:51.374,953
09:55:51.466,869
09:55:51.572,834
09:55:51.673,843
09:55:51.773,841
09:55:51.872,966
09:55:51.972,906
09:55:52.066,725
09:55:52.168,690
09:55:52.273,647
09:55:52.374,609
09:55:52.472,673
09:55:52.573,752
09:55:52.666,769
09:55:52.774,825
09:55:52.864,975
09:55:52.972,1018
09:55:53.076,1113
09:55:53.174,1733
09:55:53.274,1835
09:55:53.373,1977
09:55:53.474,1998
09:55:53.574,1835
09:55:53.675,1702
09:55:53.772,1359
09:55:53.874,1139
09:55:53.979,1034
09:55:54.074,1006
09:55:54.170,797
09:55:54.275,828
09:55:54.374,960
09:55:54.475,1040
09:55:54.579,1023
09:55:54.678,1010
09:55:54.774,944
09:55:54.871,1054
09:55:54.977,1366
09:55:55.074,1706
09:55:55.173,1643
09:55:55.274,1631
09:55:55.374,1581
09:55:55.475,1408
09:55:55.581,1703
09:55:55.675,1616
09:55:55.774,1556
09:55:55.874,1243
09:55:55.974,944
09:55:56.079,875
09:55:56.172,850
09:55:56.270,799
09:55:56.374,898
09:55:56.473,897
09:55:56.569,846
09:55:56.674,826
09:55:56.774,795
09:55:56.876,807
09:55:56.975,797
09:55:57.074,813
09:55:57.175,806
09:55:57.274,821
09:55:57.376,821
09:55:57.473,803
09:55:57.574,789
09:55:57.674,753
09:55:57.776,787
09:55:57.874,833
09:55:57.977,841
09:55:58.074,837
09:55:58.175,802
09:55:58.274,851
09:55:58.372,852
09:55:58.474,879
09:55:58.573,848
09:55:58.674,858
09:55:58.771,884
09:55:58.874,828
09:55:58.972,869
09:55:59.070,838
09:55:59.174,814
09:55:59.274,878
09:55:59.378,859
09:55:59.471,843
09:55:59.576,855
09:55:59.674,880
09:55:59.774,940
09:55:59.872,884
09:55:59.977,869
09:56:00.072,910
09:56:00.175,858
09:56:00.268,881
09:56:00.374,967
09:56:00.471,991
09:56:00.575,960
09:56:00.672,944
09:56:00.776,1088
09:56:00.876,912
09:56:00.974,910
09:56:01.067,925
09:56:01.174,898
09:56:01.275,894
09:56:01.374,870
09:56:01.474,915
09:56:01.574,878
09:56:01.673,923
09:56:01.774,1052
09:56:01.875,859
09:56:01.974,1014
09:56:02.077,1077
09:56:02.174,939
09:56:02.276,886
09:56:02.374,899
09:56:02.478,864
09:56:02.572,848
09:56:02.675,848
09:56:02.773,912
09:56:02.874,892
09:56:02.974,878
09:56:03.074,927
09:56:03.172,1038
09:56:03.272,971
09:56:03.375,855
09:56:03.475,978
09:56:03.574,976
09:56:03.676,918
09:56:03.774,896
09:56:03.875,911
09:56:03.975,933
09:56:04.075,939
09:56:04.175,917
09:56:04.276,880
09:56:04.375,906
09:56:04.476,893
09:56:04.576,913
09:56:04.676,912
09:56:04.778,883
09:56:04.877,863
09:56:04.976,902
09:56:05.071,879
09:56:05.174,902
09:56:05.276,880
09:56:05.371,863
09:56:05.474,885
09:56:05.578,863
09:56:05.673,912
09:56:05.768,857
09:56:05.872,864
09:56:05.976,926
09:56:06.067,889
09:56:06.177,886
09:56:06.279,894
09:56:06.376,902
09:56:06.474,883
09:56:06.575,877
09:56:06.668,903
09:56:06.775,895
09:56:06.874,944
09:56:06.974,945
09:56:07.078,979
09:56:07.178,899
09:56:07.271,989
09:56:07.376,896
09:56:07.474,907
09:56:07.574,875
09:56:07.674,935
09:56:07.774,907
09:56:07.874,949
09:56:07.972,965
09:56:08.076,911
09:56:08.175,837
09:56:08.274,807
09:56:08.374,826
09:56:08.474,829
09:56:08.576,896
09:56:08.674,857
09:56:08.778,836
09:56:08.878,814
09:56:08.974,795
09:56:09.073,816
09:56:09.174,855
09:56:09.274,816
09:56:09.375,775
09:56:09.475,751
09:56:09.574,752
09:56:09.675,721
09:56:09.778,723
09:56:09.875,750
09:56:09.972,685
09:56:10.072,718
09:56:10.173,762
09:56:10.274,720
09:56:10.375,712
09:56:10.475,674
09:56:10.572,720
09:56:10.671,721
09:56:10.776,736
09:56:10.874,766
09:56:10.973,763
09:56:11.075,775
09:56:11.171,746
09:56:11.273,771
09:56:11.377,738
09:56:11.474,858
09:56:11.576,804
09:56:11.672,759
09:56:11.776,789
09:56:11.873,737
09:56:11.974,698
09:56:12.073,698
09:56:12.174,708
09:56:12.274,703
09:56:12.375,694
09:56:12.476,693
09:56:12.573,720
09:56:12.678,720
09:56:12.774,703
09:56:12.872,746
09:56:12.976,779
09:56:13.076,816
09:56:13.174,770
09:56:13.273,737
09:56:13.377,810
09:56:13.474,761
09:56:13.574,767
09:56:13.672,756
09:56:13.774,733
09:56:13.876,747
09:56:13.968,745
09:56:14.078,771
09:56:14.169,731
09:56:14.274,774
09:56:14.375,789
09:56:14.472,771
09:56:14.573,741
09:56:14.683,743
09:56:14.772,738
09:56:14.873,778
09:56:14.973,720
09:56:15.076,714
09:56:15.172,741
09:56:15.275,703
09:56:15.371,693
09:56:15.474,699
09:56:15.572,681
09:56:15.675,722
09:56:15.776,710
09:56:15.873,727
09:56:15.973,704
09:56:16.076,722
09:56:16.174,723
09:56:16.274,706
09:56:16.375,677
09:56:16.478,744
09:56:16.572,723
09:56:16.674,703
09:56:16.776,720
09:56:16.869,690
09:56:16.976,752
09:56:17.072,735
09:56:17.173,714
09:56:17.275,719
09:56:17.374,751
09:56:17.473,762
09:56:17.574,772
09:56:17.672,713
09:56:17.778,753
09:56:17.872,783
09:56:17.967,733
09:56:18.074,761
09:56:18.176,777
09:56:18.274,736
09:56:18.376,757
09:56:18.475,725
09:56:18.572,746
09:56:18.674,760
09:56:18.773,737
09:56:18.877,745
09:56:18.974,766
09:56:19.074,759
09:56:19.174,725
09:56:19.274,727
09:56:19.378,766
09:56:19.472,731
09:56:19.572,743
09:56:19.675,757
09:56:19.776,739
09:56:19.869,720
09:56:19.978,725
09:56:20.071,720
09:56:20.172,735
09:56:20.271,731
09:56:20.374,740
09:56:20.474,706
09:56:20.574,705
09:56:20.676,713
09:56:20.776,765
09:56:20.878,738
09:56:20.972,726
09:56:21.076,719
09:56:21.174,765
09:56:21.274,720
09:56:21.374,753
09:56:21.475,718
09:56:21.575,673
09:56:21.678,720
09:56:21.774,720
09:56:21.875,750
09:56:21.974,733
09:56:22.073,722
09:56:22.175,725
09:56:22.277,718
09:56:22.378,706
09:56:22.483,720
09:56:22.572,784
09:56:22.676,775
09:56:22.774,707
09:56:22.874,741
09:56:22.974,666
09:56:23.074,687
09:56:23.175,713
09:56:23.274,722
09:56:23.374,693
09:56:23.472,703
09:56:23.568,743
09:56:23.674,757
09:56:23.775,765
09:56:23.874,807
09:56:23.977,931
09:56:24.075,877
09:56:24.172,798
09:56:24.274,848
09:56:24.375,833
09:56:24.476,869
09:56:24.577,855
09:56:24.674,876
09:56:24.778,923
09:56:24.877,976
09:56:24.974,869
09:56:25.073,911
09:56:25.174,977
09:56:25.275,882
09:56:25.374,836
09:56:25.478,873
09:56:25.571,871
09:56:25.673,877
09:56:25.779,879
09:56:25.882,935
09:56:25.972,958
09:56:26.074,907
09:56:26.176,927
09:56:26.274,923
09:56:26.372,886
09:56:26.479,1010
09:56:26.579,1008
09:56:26.675,961
09:56:26.772,933
09:56:26.874,902
09:56:26.974,899
09:56:27.074,873
09:56:27.175,912
09:56:27.270,943
09:56:27.378,878
09:56:27.478,872
09:56:27.582,903
09:56:27.669,912
09:56:27.774,901
09:56:27.876,943
09:56:27.974,939
09:56:28.074,918
09:56:28.174,906
09:56:28.283,861
09:56:28.374,919
09:56:28.476,866
09:56:28.573,887
09:56:28.674,895
09:56:28.776,880
09:56:28.874,901
09:56:28.978,851
09:56:29.074,910
09:56:29.175,831
09:56:29.274,848
09:56:29.374,909
09:56:29.474,854
09:56:29.572,855
09:56:29.678,880
09:56:29.779,887
09:56:29.872,880
09:56:29.976,815
09:56:30.074,844
09:56:30.175,879
09:56:30.279,818
09:56:30.371,848
09:56:30.474,833
09:56:30.574,861
09:56:30.674,868
09:56:30.774,834
09:56:30.874,821
09:56:30.974,853
09:56:31.074,815
09:56:31.175,833
09:56:31.275,832
09:56:31.370,887
09:56:31.472,905
09:56:31.574,941
09:56:31.676,875
09:56:31.776,889
09:56:31.879,930
09:56:31.978,894
09:56:32.071,893
09:56:32.174,850
09:56:32.274,834
09:56:32.376,907
09:56:32.472,909
09:56:32.573,919
09:56:32.674,914
09:56:32.774,897
09:56:32.874,901
09:56:32.972,897
09:56:33.074,909
09:56:33.174,925
09:56:33.275,950
09:56:33.374,915
09:56:33.476,1015
09:56:33.578,987
09:56:33.674,958
09:56:33.768,928
09:56:33.873,913
09:56:33.975,942
09:56:34.074,912
09:56:34.175,946
09:56:34.275,921
09:56:34.375,932
09:56:34.475,925
09:56:34.575,878
09:56:34.674,848
09:56:34.774,846
09:56:34.877,851
09:56:34.974,883
09:56:35.072,864
09:56:35.176,906
09:56:35.274,903
09:56:35.372,889
09:56:35.474,885
09:56:35.573,842
09:56:35.676,895
09:56:35.777,887
09:56:35.871,944
09:56:35.976,947
09:56:36.074,876
09:56:36.169,866
09:56:36.277,839
09:56:36.377,826
09:56:36.478,795
09:56:36.574,786
09:56:36.674,800
09:56:36.775,813
09:56:36.874,771
09:56:36.976,816
09:56:37.074,803
09:56:37.175,809
09:56:37.274,826
09:56:37.382,787
09:56:37.469,795
09:56:37.576,826
09:56:37.677,823
09:56:37.776,800
09:56:37.874,801
09:56:37.974,785
09:56:38.074,784
09:56:38.182,854
09:56:38.274,895
09:56:38.377,902
09:56:38.474,889
09:56:38.577,797
09:56:38.677,883
09:56:38.773,861
09:56:38.875,937
09:56:38.974,893
09:56:39.074,880
09:56:39.171,881
09:56:39.272,937
09:56:39.376,971
09:56:39.474,961
09:56:39.577,912
09:56:39.681,919
09:56:39.774,954
09:56:39.876,981
09:56:39.975,991
09:56:40.084,886
09:56:40.176,934
09:56:40.275,878
09:56:40.376,923
09:56:40.476,905
09:56:40.577,912
09:56:40.677,899
09:56:40.777,923
09:56:40.882,912
09:56:40.978,903
09:56:41.074,875
09:56:41.174,891
09:56:41.275,875
09:56:41.374,933
09:56:41.479,950
09:56:41.579,944
09:56:41.673,880
09:56:41.774,875
09:56:41.874,961
09:56:41.976,918
09:56:42.073,934
09:56:42.177,933
09:56:42.274,942
09:56:42.378,939
09:56:42.477,914
09:56:42.571,855
09:56:42.677,821
09:56:42.776,885
09:56:42.877,921
09:56:42.973,838
09:56:43.079,863
09:56:43.172,906
09:56:43.274,945
09:56:43.374,1001
09:56:43.477,955
09:56:43.576,958
09:56:43.677,1046
09:56:43.774,1075
09:56:43.886,1194
09:56:43.972,1422
09:56:44.072,1382
09:56:44.174,1259
09:56:44.274,1054
09:56:44.377,907
09:56:44.474,853
09:56:44.575,814
09:56:44.674,834
09:56:44.774,839
09:56:44.875,1122
09:56:44.978,1362
09:56:45.072,1362
09:56:45.178,1535
09:56:45.273,1588
09:56:45.377,1595
09:56:45.471,1648
09:56:45.578,1711
09:56:45.674,1689
09:56:45.771,1708
09:56:45.877,1578
09:56:45.972,1441
09:56:46.077,1076
09:56:46.179,881
09:56:46.275,819
09:56:46.378,833
09:56:46.477,1102
09:56:46.574,1255
09:56:46.674,959
09:56:46.774,833
09:56:46.874,771
09:56:46.977,837
09:56:47.082,823
09:56:47.171,943
09:56:47.278,1171
09:56:47.373,1231
09:56:47.475,1408
09:56:47.574,1349
09:56:47.678,1264
09:56:47.774,1407
09:56:47.874,1365
09:56:47.980,1358
09:56:48.077,1168
09:56:48.177,1061
09:56:48.274,928
09:56:48.375,923
09:56:48.477,897
09:56:48.572,832
09:56:48.675,759
09:56:48.771,769
09:56:48.874,746
09:56:48.975,736
09:56:49.075,783
09:56:49.177,758
09:56:49.272,752
09:56:49.374,759
09:56:49.477,790
09:56:49.578,720
09:56:49.676,756
09:56:49.777,762
09:56:49.872,750
09:56:49.976,752
09:56:50.074,741
09:56:50.174,714
09:56:50.274,778
09:56:50.382,767
09:56:50.474,773
09:56:50.572,752
09:56:50.675,765
09:56:50.774,818
09:56:50.874,814
09:56:50.978,801
09:56:51.072,765
09:56:51.176,765
09:56:51.274,747
09:56:51.372,799
09:56:51.478,834
09:56:51.577,848
09:56:51.672,752
09:56:51.775,736
09:56:51.872,757
09:56:51.976,895
09:56:52.077,880
09:56:52.177,916
09:56:52.274,944
09:56:52.377,901
09:56:52.474,859
09:56:52.574,877
09:56:52.679,848
09:56:52.775,835
09:56:52.874,850
09:56:52.976,870
09:56:53.074,813
09:56:53.173,798
09:56:53.270,823
09:56:53.376,895
